Time (sec),Rate μcal/sec
20,-0.0161680578143888
21,-0.016046960267192642
22,-0.015925862719996485
23,-0.015445265026221918
24,-0.014906144052771788
25,-0.014367023079321656
26,-0.013461035525329812
27,-0.012151186441497921
28,-0.010841337357666032
29,-0.00950245988051196
30,-0.007896402701555798
31,-0.006290345522599634
32,-0.0046842883436434704
33,-0.00352106088777522
34,-0.002530044990885603
35,-0.0015390290939959867
36,-0.000959207333777531
37,-0.0011919835103140453
38,-0.00142475968685056
39,-0.0016575358633870744
40,-0.002167961335859796
41,-0.002690559324438281
42,-0.003213157313016766
43,-0.0035245383670645942
44,-0.0036829692271419376
45,-0.0038414000872192817
46,-0.003978612190893272
47,-0.004028784089729019
48,-0.004078955988564766
49,-0.004129127887400512
50,-0.004136616652539413
51,-0.004134608681330119
52,-0.004132600710120823
53,-0.004124977277248047
54,-0.004110206893167202
55,-0.004095436509086357
56,-0.004078985231760432
57,-0.004037103666307331
58,-0.003995222100854229
59,-0.003953340535401128
60,-0.003920224272556345
61,-0.003891270882041767
62,-0.0038623174915271884
63,-0.0038255950748422966
64,-0.003770744930426673
65,-0.0037158947860110505
66,-0.003661044641595428
67,-0.0036060469850321512
68,-0.003551036849133172
69,-0.0034960267132341924
70,-0.0034479780467950656
71,-0.0034059074452080806
72,-0.003363836843621095
73,-0.003321852218077328
74,-0.003280318966760456
75,-0.0032387857154435843
76,-0.0031972524641267126
77,-0.0031982524796956495
78,-0.003211109595240426
79,-0.0032239667107852037
80,-0.003242276594518044
81,-0.003268630661023374
82,-0.003294984727528704
83,-0.0033207947516541644
84,-0.003319946699165996
85,-0.0033190986466778284
86,-0.00331825059418966
87,-0.0033176373301194214
88,-0.0033171549916778714
89,-0.003316672653236322
90,-0.0033091187929717267
91,-0.003281850387018642
92,-0.0032545819810655577
93,-0.0032273135751124727
94,-0.0031523493664506325
95,-0.0030708811846921432
96,-0.002989413002933654
97,-0.002827122183310176
98,-0.0025846527309043013
99,-0.0023421832784984264
100,-0.0021162449673907385
101,-0.0020070911706154384
102,-0.0018979373738401385
103,-0.0017887835770648384
104,-0.0018791996065837357
105,-0.002039734764260071
106,-0.0022002699219364065
107,-0.002302512560255609
108,-0.00230201865893435
109,-0.0023015247576130913
110,-0.002301030856291832
111,-0.0023140866274741112
112,-0.002327362718534497
113,-0.0023406388095948824
114,-0.0022558731386722606
115,-0.0021073641439521046
116,-0.001958855149231948
117,-0.0018191701705719471
118,-0.0017104089959425848
119,-0.0016016478213132224
120,-0.0014928866466838598
121,-0.0015778803359181148
122,-0.0016986865355347307
123,-0.0018194927351513465
124,-0.0018776572350488688
125,-0.0018640391863412528
126,-0.0018504211376336361
127,-0.0018279248039977077
128,-0.001706034987871643
129,-0.0015841451717455786
130,-0.0014622553556195138
131,-0.0014542934136151189
132,-0.0014942329641391512
133,-0.0015341725146631835
134,-0.0015830459533995266
135,-0.0016503900689919999
136,-0.0017177341845844728
137,-0.0017850783001769459
138,-0.0017756702840129354
139,-0.0017620522353053228
140,-0.0017484341865977105
141,-0.001711957679101925
142,-0.0016578104481457796
143,-0.0016036632171896343
144,-0.0015395059430477385
145,-0.0014315412756090566
146,-0.0013235766081703742
147,-0.001215611940731692
148,-0.0011944746569910942
149,-0.0011939696228421214
150,-0.0011934645886931487
151,-0.001204411612889214
152,-0.001230916150308729
153,-0.0012574206877282441
154,-0.0012814510804168594
155,-0.0012541698628168107
156,-0.0012268886452167617
157,-0.0011996074276167125
158,-0.001181453206836811
159,-0.0011678351581291976
160,-0.0011542171094215841
161,-0.0011366984871874727
162,-0.001109346024654162
163,-0.001081993562120851
164,-0.0010546410995875403
165,-0.0010763862123764432
166,-0.0011032253340839862
167,-0.0011300644557915292
168,-0.0011142750937828102
169,-0.001060378450876215
170,-0.0010064818079696196
171,-0.0009505150078655268
172,-0.0008828173169756183
173,-0.0008151196260857098
174,-0.0007474219351958012
175,-0.000741518365299311
176,-0.0007544918506410172
177,-0.0007674653359827234
178,-0.0007545349725258107
179,-0.0007007459609638661
180,-0.0006469569494019214
181,-0.0005932968018662998
182,-0.0005523941929366705
183,-0.0005114915840070413
184,-0.00047058897507741207
185,-0.00042126055805204025
186,-0.00036689819178096854
187,-0.00031253582550989695
188,-0.0002179783677911991
189,-1.5390198764672123e-06
190,0.00021490032803826462
191,0.0004313396759529965
192,0.00037829574735646
193,0.0002849842027295056
194,0.00019167265810255126
195,4.484283829100281e-05
220,-0.017603755721869063
221,-0.01760375572186906
222,-0.017393356269645832
223,-0.016925801931371984
224,-0.016458247593098135
225,-0.0159250867822331
226,-0.014546331435748343
227,-0.013167576089263586
228,-0.01178882074277883
229,-0.010706130452575359
230,-0.009753981815429622
231,-0.008801833178283886
232,-0.007915996433374557
233,-0.007177757126023688
234,-0.006439517818672818
235,-0.005701278511321948
236,-0.004440055441103552
237,-0.0031406747572853893
238,-0.0018412940734672267
239,-0.00119117610586333
240,-0.0010637497834428144
241,-0.0009363234610222989
242,-0.0009289304150683981
243,-0.001507582189510493
244,-0.0020862339639525877
245,-0.0026648857383946827
246,-0.003001070068959357
247,-0.0032735760809299726
248,-0.0035460820929005886
249,-0.003754806608856723
250,-0.0038732510362512913
251,-0.0039916954636458595
252,-0.0041066540723425716
253,-0.004128270202574484
254,-0.004149886332806396
255,-0.004171502463038308
256,-0.004130242339169595
257,-0.0040554224968545344
258,-0.0039806026545394745
259,-0.003919477258353316
260,-0.003894637146435707
261,-0.003869797034518099
262,-0.00384495692260049
263,-0.0038410379825126197
264,-0.003839547392726415
265,-0.0038380568029402103
266,-0.0038055921251547694
267,-0.003743605269745056
268,-0.0036816184143353427
269,-0.003619748951402613
270,-0.003558638159253974
271,-0.0034975273671053343
272,-0.0034364165749566954
273,-0.003384817468868091
274,-0.0033362882720369583
275,-0.003287759075205826
276,-0.0032388879489585994
277,-0.0031894395870304395
278,-0.00313999122510228
279,-0.003090542863174121
280,-0.0030533900511753075
281,-0.003016311457787738
282,-0.0029792328644001683
283,-0.0029424185817461717
284,-0.002905769064224792
285,-0.0028691195467034124
286,-0.0028267444904403554
287,-0.0027660380874497425
288,-0.0027053316844591296
289,-0.0026446252814685163
290,-0.0025732773909855097
291,-0.0025001102298070825
292,-0.0024269430686286544
293,-0.002394055092925708
294,-0.002405508069300812
295,-0.0024169610456759158
296,-0.0024225325404954277
297,-0.0023739703989563397
298,-0.0023254082574172526
299,-0.0022768461158781646
300,-0.0022450914676611
301,-0.0022200692327354887
302,-0.0021950469978098785
303,-0.0022024722827701034
304,-0.0022740200475047136
305,-0.0023455678122393233
306,-0.0024171155769739335
307,-0.0023282856332601234
308,-0.002232424516524561
309,-0.002136563399788999
310,-0.002019401203112519
311,-0.0018868140864788214
312,-0.0017542269698451237
313,-0.0016521409612188789
314,-0.001675171742582413
315,-0.0016982025239459472
316,-0.0017212333053094814
317,-0.0016077638730990185
318,-0.0014639239777217213
319,-0.0013200840823444243
320,-0.001233813608178898
321,-0.0012208133064647336
322,-0.0012078130047505692
323,-0.0012049023436024131
324,-0.0013720741948529188
325,-0.0015392460461034247
326,-0.0017064178973539303
327,-0.0017194479850748466
328,-0.0016592721025059174
329,-0.0015990962199369885
330,-0.001549695168412049
331,-0.0015254353893230863
332,-0.001501175610234123
333,-0.0014769158311451597
334,-0.00138657274281734
335,-0.0012901696130309392
336,-0.0011937664832445383
337,-0.0011230706041152959
338,-0.0010744504681154334
339,-0.0010258303321155709
340,-0.0009926416076500458
341,-0.0010404677937398113
342,-0.0010882939798295766
343,-0.001136120165919342
344,-0.001071331108982031
345,-0.000975148032888821
346,-0.0008789649567956106
347,-0.0007873923415269724
348,-0.0007027933378573095
349,-0.0006181943341876465
350,-0.0005359993148245194
351,-0.0005715995264817584
352,-0.0006071997381389975
353,-0.0006427999497962364
354,-0.0006399427088765484
355,-0.0006156403464264185
356,-0.0005913379839762884
357,-0.0005731676173507333
358,-0.0005726326805772568
359,-0.0005720977438037803
360,-0.0005715628070303038
361,-0.0005291624194940815
362,-0.0004810531068538483
363,-0.000432943794213615
364,-0.0003305175909904488
365,-0.0001742073010933914
366,-1.789701119633401e-05
367,0.00011613401947580459
368,9.277286401064776e-05
369,6.941170854549093e-05
370,4.60505530803341e-05
371,-4.834437600480236e-05
372,-0.00016769711744290346
373,-0.00028704985888100456
374,-0.000376263945387112
375,-0.00041236073397439435
376,-0.00044845752256167663
377,-0.00048455431114895897
378,-0.0004731960484545833
379,-0.0004610661589101012
380,-0.0004489362693656191
381,-0.000379278720093505
382,-0.0002712693976696397
383,-0.00016326007524577443
384,-4.4461863838349546e-05
385,0.00011214605761056365
386,0.0002687539790594768
387,0.00042536190050838994
388,0.00038942215389333807
389,0.0003178930278730813
390,0.00024636390185282466
391,0.00019705969007519122
392,0.00017322351307343854
393,0.00014938733607168587
394,0.00013245169636302034
395,0.00019276841317929333
420,-0.017806940044309643
421,-0.017580776130666616
422,-0.017303837112834123
423,-0.017026898095001627
424,-0.01674995907716913
425,-0.01595422919036552
426,-0.014900657135150989
427,-0.013847085079936457
428,-0.012750022731887602
429,-0.011529180319617974
430,-0.010308337907348345
431,-0.009087495495078715
432,-0.008136991137216765
433,-0.0072165243409556745
434,-0.006296057544694585
435,-0.0051897223565537266
436,-0.003925054834589342
437,-0.0026603873126249556
438,-0.0015099351775839927
439,-0.0011970625466480958
440,-0.000884189915712199
441,-0.0005713172847763019
442,-0.0009322806681749136
443,-0.0015060343718896964
444,-0.0020797880756044792
445,-0.002549601686981555
446,-0.0028635051598520536
447,-0.0031774086327225524
448,-0.003491312105593051
449,-0.0036005261825445035
450,-0.0037055629248853427
451,-0.0038105996672261814
452,-0.003847308424970502
453,-0.0038421387405427627
454,-0.0038369690561150236
455,-0.003827384748742093
456,-0.003805235745294385
457,-0.003783086741846677
458,-0.003760937738398969
459,-0.0037491605349478656
460,-0.0037393589124484965
461,-0.003729557289949127
462,-0.0037052096396300496
463,-0.003665103792506288
464,-0.0036249979453825266
465,-0.0035802944252639156
466,-0.0035018746365164063
467,-0.0034234548477688974
468,-0.003345035059021388
469,-0.0032929091877013875
470,-0.0032520521381360305
471,-0.003211195088570673
472,-0.003177641735239947
473,-0.003158266145188209
474,-0.003138890555136471
475,-0.003119514965084733
476,-0.0030421443912436535
477,-0.0029635902463048328
478,-0.002885036101366012
479,-0.0028163185782716592
480,-0.002755329829483676
481,-0.0026943410806956935
482,-0.002639566796608073
483,-0.0026096503713218967
484,-0.0025797339460357205
485,-0.002549817520749544
486,-0.002563902653798975
487,-0.0025863690360551934
488,-0.002608835418311412
489,-0.0025910613276776203
490,-0.002517717060195736
491,-0.0024443727927138514
492,-0.0023719961457927406
493,-0.0023147788876571045
494,-0.002257561629521468
495,-0.002200344371385831
496,-0.0022873365054655185
497,-0.002436132664780331
498,-0.0025849288240951443
499,-0.0026374471351544985
500,-0.0025030731525415174
501,-0.002368699169928536
502,-0.0022343251873155547
503,-0.002138953099436141
504,-0.0020469724806639962
505,-0.001954991861891851
506,-0.001927811052420836
507,-0.0019515443788292685
508,-0.001975277705237701
509,-0.001974113661648068
510,-0.0018733601380661307
511,-0.0017726066144841933
512,-0.0016718530909022558
513,-0.0015692968973032998
514,-0.0014662322583149276
515,-0.001363167619326556
516,-0.0013414607984502227
517,-0.0014321052502048184
518,-0.0015227497019594137
519,-0.0016086290262576528
520,-0.001619854687073053
521,-0.0016310803478884529
522,-0.001642306008703853
523,-0.0016022195198127191
524,-0.0015332699467116577
525,-0.001464320373610596
526,-0.0013963714916767071
527,-0.0013309958156012625
528,-0.0012656201395258178
529,-0.001200244463450373
530,-0.0012156818473223815
531,-0.0012381464537985201
532,-0.001260611060274659
533,-0.0012984104946730704
534,-0.001351544756993755
535,-0.0014046790193144396
536,-0.0014241278147434444
537,-0.0012366515992663942
538,-0.001049175383789344
539,-0.0008616991683122936
540,-0.0007419197439822713
541,-0.000641234286386029
542,-0.0005405488287897868
543,-0.0005110071546075702
544,-0.0006079433176058988
545,-0.0007048794806042275
546,-0.0006041861100888682
547,-0.0007811151795094003
548,-0.0007604147154162445
549,-0.0007397142513230887
550,-0.0007323056464804014
551,-0.0007323737124660993
552,-0.0007324417784517972
553,-0.0007369351009189622
554,-0.0007571179690931445
555,-0.0007773008372673265
556,-0.0007974837054415088
557,-0.0007242098320899298
558,-0.0006357220705829962
559,-0.0005472343090760626
560,-0.0004862142317999243
561,-0.00045266183875458156
562,-0.00041910944570923886
563,-0.0003889659405224625
564,-0.00039802464570917794
565,-0.00040708335089589343
566,-0.0004161420560826089
567,-0.0004031333483829736
568,-0.00038154286900531407
569,-0.00035995238962765455
570,-0.0003259976372354916
571,-0.00027006195503976807
572,-0.0002141262728440446
573,-0.0001581905906483211
574,-5.81628617461632e-05
575,4.4679253115982814e-05
576,0.00014752136797812883
577,0.00019713036982194879
578,0.00020819125534215976
579,0.00021925214086237073
580,0.00021062631979255268
581,0.00013220217535805107
582,5.3778030923549466e-05
583,-2.464611351095213e-05
584,-3.005342468065762e-05
585,-1.7206527534171864e-05
586,-4.359630387686112e-06
587,2.7243274986175134e-05
588,8.271746355851998e-05
589,0.00013819165213086484
590,0.00019101715482644003
591,0.0002133827699391809
592,0.00023574838505192183
593,0.0002581140001646627
594,0.0002815179644649131
595,0.00030545683592236546
620,-0.017881865970625688
621,-0.017379144999102644
622,-0.01731467840783918
623,-0.017250211816575715
624,-0.016995932002099458
625,-0.01614057698078273
626,-0.015285221959466
627,-0.01442986693814927
628,-0.013319675604438043
629,-0.0121747338644912
630,-0.011029792124544354
631,-0.00995549448379953
632,-0.008946406780779651
633,-0.007937319077759774
634,-0.006829473421388459
635,-0.004832806184854444
636,-0.0028361389483204285
637,-0.0008394717117864135
638,0.00013745177607010209
639,0.0007560869197967029
640,0.0013747220635233035
641,0.0013581987811747537
642,0.000305364382598306
643,-0.0007474700159781416
644,-0.0018003044145545896
645,-0.002259054879994436
646,-0.0026930518482202815
647,-0.0031270488164461263
648,-0.0033692298211166734
649,-0.0034835335167503682
650,-0.003597837212384063
651,-0.003697712349543755
652,-0.0037518970515357727
653,-0.0038060817535277916
654,-0.003860266455519809
655,-0.0038522419908602694
656,-0.0038305618554723316
657,-0.003808881720084394
658,-0.003783868038342868
659,-0.0037549410630558265
660,-0.0037260140877687846
661,-0.003695691085202183
662,-0.0036528038371195504
663,-0.0036099165890369177
664,-0.0035670293409542854
665,-0.0035197318653794572
666,-0.0034703589886318307
667,-0.003420986111884205
668,-0.0033817396218616316
669,-0.0033640117036298003
670,-0.0033462837853979687
671,-0.003328555867166138
672,-0.003245154765189121
673,-0.0031590172805560568
674,-0.003072879795922993
675,-0.0030011338694482434
676,-0.0029416474184416888
677,-0.002882160967435135
678,-0.002831933314552401
679,-0.0028238846309003875
680,-0.0028158359472483735
681,-0.00280778726359636
682,-0.0027535099411301707
683,-0.0026890848686803776
684,-0.0026246597962305846
685,-0.002567192116362134
686,-0.002520160525365698
687,-0.0024731289343692623
688,-0.002427241646421618
689,-0.002408817631645003
690,-0.0023903936168683877
691,-0.002371969602091772
692,-0.002322342685757864
693,-0.0022580320510440497
694,-0.002193721416330236
695,-0.0021563334519476007
696,-0.002195571549276787
697,-0.002234809646605974
698,-0.0022740477439351604
699,-0.002308497058081982
700,-0.0023424142852085396
701,-0.002376331512335098
702,-0.0023571773154367026
703,-0.002292814127702249
704,-0.0022284509399677953
705,-0.0021586078714753666
706,-0.002048579010757786
707,-0.001938550150040206
708,-0.001828521289322626
709,-0.001738071651040741
710,-0.0016538049251069707
711,-0.0015695381991732004
712,-0.0015104057829858075
713,-0.0014889748314179854
714,-0.0014675438798501632
715,-0.001446112928282341
716,-0.0014317211393469966
717,-0.0014174730067919067
718,-0.0014032248742368168
719,-0.0013917550489895441
720,-0.001381988057253514
721,-0.0013722210655174839
722,-0.001373371279603261
723,-0.0014055935410280285
724,-0.001437815802452796
725,-0.0014700380638775635
726,-0.0014825107339482087
727,-0.0014912215770942572
728,-0.0014999324202403053
729,-0.0014793505190220737
730,-0.0014270348114092078
731,-0.0013747191037963415
732,-0.001313226285126707
733,-0.0011844346520407734
734,-0.0010556430189548399
735,-0.0009268513858689064
736,-0.0008719684775667844
737,-0.0008487607370291459
738,-0.0008255529964915075
739,-0.0008363433449261585
740,-0.0009131299837187735
741,-0.0009899166225113885
742,-0.0010667032613040034
743,-0.0010156837463560064
744,-0.0009620559425561629
745,-0.0009084281387563191
746,-0.0008478132461784498
747,-0.0007817084981321332
748,-0.0007156037500858165
749,-0.0006565103545086041
750,-0.0006254623688078201
751,-0.0005944143831070361
752,-0.0005633663974062523
753,-0.0005584535360924239
754,-0.000558518793709443
755,-0.0005585840513264623
756,-0.0005349841893157695
757,-0.00047870392400965956
758,-0.0004224236587035495
759,-0.00036313614850007114
760,-0.0002567351349045375
761,-0.00015033412130900382
762,-4.393310771347017e-05
763,-2.706251109536971e-05
764,-4.856209318189592e-05
765,-7.006167526842216e-05
766,-9.683690076048411e-05
767,-0.00013717806643821125
768,-0.00017751923211593837
769,-0.00021786039779366555
770,-0.0002608209447873299
771,-0.00030400926406933687
772,-0.00034719758335134384
773,-0.00038487484925407603
774,-0.00041822200178737916
775,-0.0004515691543206823
776,-0.0004696658514549996
777,-0.00042676072699339055
778,-0.0003838556025317816
779,-0.00034095047807017255
780,-0.00029720190005872913
781,-0.0002532154248922041
782,-0.0002092289497256791
783,-0.0001613739432336659
784,-0.00010817667919693249
785,-5.4979415160199096e-05
786,-5.621262797506917e-06
787,-1.6409193328185117e-05
788,-2.7197123858863318e-05
789,-3.798505438954152e-05
790,-3.3981069773833364e-05
791,-2.1656632888282398e-05
792,-9.332196002731425e-06
793,5.572980803302379e-06
794,2.7114345976289215e-05
795,4.865571114927606e-05
820,-0.0178313625798699
821,-0.01764373346331155
822,-0.0174561043467532
823,-0.01726847523019485
824,-0.01691980333974788
825,-0.016544915183784162
826,-0.016170027027820444
827,-0.015251175708173971
828,-0.013788361224844751
829,-0.012325546741515531
830,-0.01084869663659439
831,-0.009210436883366261
832,-0.007572177130138133
833,-0.005933917376910005
834,-0.0046826229636308106
835,-0.003581815071442846
836,-0.0024810071792548813
837,-0.001601075340458856
838,-0.0011138120410264477
839,-0.0006265487415940396
840,-0.00013928544216163153
841,-0.0005932189086205713
842,-0.0011072287643916667
843,-0.001621238620162762
844,-0.00207133509279781
845,-0.0024751494604032917
846,-0.002878963828008774
847,-0.0032195893243499724
848,-0.0033361815498449614
849,-0.00345277377533995
850,-0.003569366000834939
851,-0.003606064315394462
852,-0.0036227891522201128
853,-0.0036395139890457633
854,-0.003637686569796957
855,-0.0036122471882715523
856,-0.0035868078067461473
857,-0.0035617360588449123
858,-0.0035408920976216143
859,-0.0035200481363983167
860,-0.0034992041751750196
861,-0.0034713207148596753
862,-0.0034398108459211545
863,-0.0034083009769826328
864,-0.0033619338320563037
865,-0.0032808997098250805
866,-0.0031998655875938573
867,-0.003118831465362634
868,-0.0030742778091125563
